Sept. 7, 2020   11:27:42
Amperometric i-t Curve
File: c:\users\asus\desktop\code\testData Source:  Experiment
Instrument Model:  CHI660E
Header: 
Note: 

Init E (V) = 0.2
Sample Interval (s) = 0.1
Run Time (sec) = 4e+3
Quiet Time (sec) = 0
Sensitivity (A/V) = 1e-4

tp = 150.40s
ip = 6.189e-6A
Ap = 4.540e-5C

tp = 210.10s
ip = 4.571e-6A
Ap = 3.447e-5C

Time/sec, Current/A

1.000e-1, -9.970e-8
2.000e-1, -7.631e-8
3.000e-1, -5.396e-8
4.000e-1, -4.412e-8
5.000e-1, -2.935e-8
6.000e-1, -2.471e-8
7.000e-1, -1.306e-8
8.000e-1, -1.335e-8
9.000e-1, -1.607e-9
1.000e+0, -4.163e-9
1.100e+0, 7.009e-9
1.200e+0, 3.695e-9
1.300e+0, 1.411e-8
1.400e+0, 9.092e-9
1.500e+0, 1.989e-8
1.600e+0, 1.458e-8
1.700e+0, 2.424e-8
1.800e+0, 1.875e-8
1.900e+0, 2.907e-8
2.000e+0, 2.168e-8
2.100e+0, 3.087e-8
2.200e+0, 2.254e-8
2.300e+0, 3.276e-8
2.400e+0, 2.680e-8
2.500e+0, 3.541e-8
2.600e+0, 2.964e-8
2.700e+0, 3.882e-8
2.800e+0, 3.229e-8
2.900e+0, 3.911e-8
3.000e+0, 3.333e-8
3.100e+0, 3.958e-8
3.200e+0, 3.598e-8
3.300e+0, 4.138e-8
3.400e+0, 3.797e-8
3.500e+0, 4.251e-8
3.600e+0, 3.930e-8
3.700e+0, 4.299e-8
3.800e+0, 4.138e-8
3.900e+0, 4.356e-8
4.000e+0, 4.327e-8
4.100e+0, 4.460e-8
4.200e+0, 4.526e-8
4.300e+0, 4.640e-8
4.400e+0, 4.659e-8
4.500e+0, 4.517e-8
4.600e+0, 4.772e-8
4.700e+0, 4.535e-8
4.800e+0, 5.009e-8
4.900e+0, 4.640e-8
5.000e+0, 5.113e-8
5.100e+0, 4.611e-8
5.200e+0, 5.189e-8
5.300e+0, 4.715e-8
5.400e+0, 5.293e-8
5.500e+0, 4.659e-8
5.600e+0, 5.340e-8
5.700e+0, 4.744e-8
5.800e+0, 5.378e-8
5.900e+0, 4.545e-8
6.000e+0, 5.369e-8
6.100e+0, 4.801e-8
6.200e+0, 5.549e-8
6.300e+0, 4.848e-8
6.400e+0, 5.709e-8
6.500e+0, 4.848e-8
6.600e+0, 5.766e-8
6.700e+0, 4.914e-8
6.800e+0, 5.814e-8
6.900e+0, 5.066e-8
7.000e+0, 5.823e-8
7.100e+0, 5.151e-8
7.200e+0, 5.814e-8
7.300e+0, 5.113e-8
7.400e+0, 5.814e-8
7.500e+0, 5.236e-8
7.600e+0, 5.785e-8
7.700e+0, 5.321e-8
7.800e+0, 5.766e-8
7.900e+0, 5.482e-8
8.000e+0, 5.842e-8
8.100e+0, 5.539e-8
8.200e+0, 5.719e-8
8.300e+0, 5.634e-8
8.400e+0, 5.757e-8
8.500e+0, 5.785e-8
8.600e+0, 5.833e-8
8.700e+0, 5.946e-8
8.800e+0, 5.709e-8
8.900e+0, 5.899e-8
9.000e+0, 5.558e-8
9.100e+0, 6.060e-8
9.200e+0, 5.425e-8
9.300e+0, 6.154e-8
9.400e+0, 5.530e-8
9.500e+0, 6.041e-8
9.600e+0, 5.473e-8
9.700e+0, 6.344e-8
9.800e+0, 5.416e-8
9.900e+0, 6.334e-8
1.000e+1, 5.511e-8
1.010e+1, 6.363e-8
1.020e+1, 5.558e-8
1.030e+1, 6.297e-8
1.040e+1, 5.558e-8
1.050e+1, 6.315e-8
1.060e+1, 5.795e-8
1.070e+1, 6.476e-8
1.080e+1, 5.956e-8
1.090e+1, 6.249e-8
1.100e+1, 5.776e-8
1.110e+1, 6.126e-8
1.120e+1, 5.956e-8
1.130e+1, 6.003e-8
1.140e+1, 6.117e-8
1.150e+1, 5.889e-8
1.160e+1, 6.117e-8
1.170e+1, 5.994e-8
1.180e+1, 6.268e-8
1.190e+1, 5.918e-8
1.200e+1, 6.429e-8
1.210e+1, 5.804e-8
1.220e+1, 6.363e-8
1.230e+1, 5.833e-8
1.240e+1, 6.107e-8
1.250e+1, 5.956e-8
1.260e+1, 6.723e-8
1.270e+1, 5.880e-8
1.280e+1, 6.675e-8
1.290e+1, 5.889e-8
1.300e+1, 6.704e-8
1.310e+1, 5.975e-8
1.320e+1, 6.675e-8
1.330e+1, 6.031e-8
1.340e+1, 6.609e-8
1.350e+1, 6.202e-8
1.360e+1, 6.590e-8
1.370e+1, 6.325e-8
1.380e+1, 6.524e-8
1.390e+1, 6.467e-8
1.400e+1, 6.353e-8
1.410e+1, 6.486e-8
1.420e+1, 6.306e-8
1.430e+1, 6.628e-8
1.440e+1, 6.240e-8
1.450e+1, 6.704e-8
1.460e+1, 6.126e-8
1.470e+1, 6.902e-8
1.480e+1, 6.098e-8
1.490e+1, 6.855e-8
1.500e+1, 6.031e-8
1.510e+1, 6.997e-8
1.520e+1, 6.145e-8
1.530e+1, 6.855e-8
1.540e+1, 6.192e-8
1.550e+1, 6.808e-8
1.560e+1, 6.192e-8
1.570e+1, 6.874e-8
1.580e+1, 6.372e-8
1.590e+1, 6.694e-8
1.600e+1, 6.278e-8
1.610e+1, 6.571e-8
1.620e+1, 6.618e-8
1.630e+1, 6.495e-8
1.640e+1, 6.581e-8
1.650e+1, 6.467e-8
1.660e+1, 6.779e-8
1.670e+1, 6.457e-8
1.680e+1, 6.931e-8
1.690e+1, 6.306e-8
1.700e+1, 7.063e-8
1.710e+1, 6.306e-8
1.720e+1, 7.205e-8
1.730e+1, 6.325e-8
1.740e+1, 7.130e-8
1.750e+1, 6.382e-8
1.760e+1, 7.007e-8
1.770e+1, 6.268e-8
1.780e+1, 7.063e-8
1.790e+1, 6.372e-8
1.800e+1, 7.063e-8
1.810e+1, 6.467e-8
1.820e+1, 6.931e-8
1.830e+1, 6.486e-8
1.840e+1, 6.931e-8
1.850e+1, 6.637e-8
1.860e+1, 6.836e-8
1.870e+1, 6.770e-8
1.880e+1, 6.798e-8
1.890e+1, 6.874e-8
1.900e+1, 6.656e-8
1.910e+1, 6.874e-8
1.920e+1, 6.666e-8
1.930e+1, 6.950e-8
1.940e+1, 6.637e-8
1.950e+1, 7.158e-8
1.960e+1, 6.448e-8
1.970e+1, 7.253e-8
1.980e+1, 6.467e-8
1.990e+1, 7.253e-8
2.000e+1, 6.486e-8
2.010e+1, 7.329e-8
2.020e+1, 6.467e-8
2.030e+1, 7.253e-8
2.040e+1, 6.486e-8
2.050e+1, 7.310e-8
2.060e+1, 6.524e-8
2.070e+1, 7.281e-8
2.080e+1, 6.495e-8
2.090e+1, 7.224e-8
2.100e+1, 6.599e-8
2.110e+1, 7.205e-8
2.120e+1, 6.760e-8
2.130e+1, 7.187e-8
2.140e+1, 6.789e-8
2.150e+1, 7.111e-8
2.160e+1, 6.751e-8
2.170e+1, 7.007e-8
2.180e+1, 6.969e-8
2.190e+1, 6.978e-8
2.200e+1, 7.073e-8
2.210e+1, 6.893e-8
2.220e+1, 7.063e-8
2.230e+1, 6.865e-8
2.240e+1, 7.111e-8
2.250e+1, 6.827e-8
2.260e+1, 7.395e-8
2.270e+1, 6.760e-8
2.280e+1, 7.480e-8
2.290e+1, 6.742e-8
2.300e+1, 7.546e-8
2.310e+1, 6.704e-8
2.320e+1, 7.489e-8
2.330e+1, 6.723e-8
2.340e+1, 7.489e-8
2.350e+1, 6.751e-8
2.360e+1, 7.499e-8
2.370e+1, 6.770e-8
2.380e+1, 7.130e-8
2.390e+1, 6.742e-8
2.400e+1, 7.423e-8
2.410e+1, 6.836e-8
2.420e+1, 7.442e-8
2.430e+1, 6.959e-8
2.440e+1, 7.376e-8
2.450e+1, 6.950e-8
2.460e+1, 7.347e-8
2.470e+1, 7.111e-8
2.480e+1, 7.300e-8
2.490e+1, 7.291e-8
2.500e+1, 6.760e-8
2.510e+1, 6.846e-8
2.520e+1, 6.836e-8
2.530e+1, 7.376e-8
2.540e+1, 7.016e-8
2.550e+1, 7.575e-8
2.560e+1, 6.921e-8
2.570e+1, 7.594e-8
2.580e+1, 6.931e-8
2.590e+1, 7.584e-8
2.600e+1, 6.969e-8
2.610e+1, 7.347e-8
2.620e+1, 6.902e-8
2.630e+1, 7.736e-8
2.640e+1, 6.893e-8
2.650e+1, 7.736e-8
2.660e+1, 6.855e-8
2.670e+1, 7.679e-8
2.680e+1, 6.902e-8
2.690e+1, 7.641e-8
2.700e+1, 6.846e-8
2.710e+1, 7.774e-8
2.720e+1, 6.931e-8
2.730e+1, 7.565e-8
2.740e+1, 6.997e-8
2.750e+1, 7.660e-8
2.760e+1, 7.026e-8
2.770e+1, 7.556e-8
2.780e+1, 7.044e-8
2.790e+1, 7.489e-8
2.800e+1, 7.120e-8
2.810e+1, 7.471e-8
2.820e+1, 7.205e-8
2.830e+1, 7.310e-8
2.840e+1, 7.272e-8
2.850e+1, 7.366e-8
2.860e+1, 7.300e-8
2.870e+1, 7.281e-8
2.880e+1, 7.291e-8
2.890e+1, 7.111e-8
2.900e+1, 7.319e-8
2.910e+1, 7.130e-8
2.920e+1, 7.433e-8
2.930e+1, 7.101e-8
2.940e+1, 7.452e-8
2.950e+1, 7.026e-8
2.960e+1, 7.480e-8
2.970e+1, 6.969e-8
2.980e+1, 7.508e-8
2.990e+1, 6.921e-8
3.000e+1, 9.251e-8
3.010e+1, 7.713e-6
3.020e+1, 4.428e-6
3.030e+1, 3.812e-6
3.040e+1, 3.543e-6
3.050e+1, 3.330e-6
3.060e+1, 3.202e-6
3.070e+1, 3.058e-6
3.080e+1, 3.001e-6
3.090e+1, 2.941e-6
3.100e+1, 2.855e-6
3.110e+1, 2.778e-6
3.120e+1, 2.765e-6
3.130e+1, 2.724e-6
3.140e+1, 2.648e-6
3.150e+1, 2.614e-6
3.160e+1, 2.604e-6
3.170e+1, 2.546e-6
3.180e+1, 2.545e-6
3.190e+1, 2.504e-6
3.200e+1, 2.492e-6
3.210e+1, 2.444e-6
3.220e+1, 2.454e-6
3.230e+1, 2.404e-6
3.240e+1, 2.415e-6
3.250e+1, 2.365e-6
3.260e+1, 2.398e-6
3.270e+1, 2.326e-6
3.280e+1, 2.360e-6
3.290e+1, 2.290e-6
3.300e+1, 2.318e-6
3.310e+1, 2.269e-6
3.320e+1, 2.287e-6
3.330e+1, 2.265e-6
3.340e+1, 2.249e-6
3.350e+1, 2.216e-6
3.360e+1, 2.250e-6
3.370e+1, 2.193e-6
3.380e+1, 2.201e-6
3.390e+1, 2.178e-6
3.400e+1, 2.176e-6
3.410e+1, 2.161e-6
3.420e+1, 2.156e-6
3.430e+1, 2.153e-6
3.440e+1, 2.136e-6
3.450e+1, 2.130e-6
3.460e+1, 2.116e-6
3.470e+1, 2.121e-6
3.480e+1, 2.093e-6
3.490e+1, 2.090e-6
3.500e+1, 2.084e-6
3.510e+1, 2.061e-6
3.520e+1, 2.073e-6
3.530e+1, 2.068e-6
3.540e+1, 2.036e-6
3.550e+1, 2.052e-6
3.560e+1, 2.022e-6
3.570e+1, 2.036e-6
3.580e+1, 2.030e-6
3.590e+1, 2.009e-6
3.600e+1, 2.013e-6
3.610e+1, 2.008e-6
3.620e+1, 1.979e-6
3.630e+1, 2.004e-6
3.640e+1, 1.972e-6
3.650e+1, 1.991e-6
3.660e+1, 1.946e-6
3.670e+1, 1.990e-6
3.680e+1, 1.952e-6
3.690e+1, 1.961e-6
3.700e+1, 1.946e-6
3.710e+1, 1.954e-6
3.720e+1, 1.929e-6
3.730e+1, 1.936e-6
3.740e+1, 1.916e-6
3.750e+1, 1.954e-6
3.760e+1, 1.907e-6
3.770e+1, 1.925e-6
3.780e+1, 1.914e-6
3.790e+1, 1.905e-6
3.800e+1, 1.892e-6
3.810e+1, 1.920e-6
3.820e+1, 1.891e-6
3.830e+1, 1.896e-6
3.840e+1, 1.888e-6
3.850e+1, 1.872e-6
3.860e+1, 1.886e-6
3.870e+1, 1.867e-6
3.880e+1, 1.875e-6
3.890e+1, 1.871e-6
3.900e+1, 1.865e-6
3.910e+1, 1.854e-6
3.920e+1, 1.856e-6
3.930e+1, 1.843e-6
3.940e+1, 1.833e-6
3.950e+1, 1.842e-6
3.960e+1, 1.824e-6
3.970e+1, 1.814e-6
3.980e+1, 1.840e-6
3.990e+1, 1.813e-6
4.000e+1, 1.834e-6
4.010e+1, 1.804e-6
4.020e+1, 1.821e-6
4.030e+1, 1.787e-6
4.040e+1, 1.812e-6
4.050e+1, 1.768e-6
4.060e+1, 1.807e-6
4.070e+1, 1.781e-6
4.080e+1, 1.794e-6
4.090e+1, 1.770e-6
4.100e+1, 1.795e-6
4.110e+1, 1.775e-6
4.120e+1, 1.779e-6
4.130e+1, 1.749e-6
4.140e+1, 1.783e-6
4.150e+1, 1.747e-6
4.160e+1, 1.757e-6
4.170e+1, 1.760e-6
4.180e+1, 1.754e-6
4.190e+1, 1.754e-6
4.200e+1, 1.743e-6
4.210e+1, 1.755e-6
4.220e+1, 1.746e-6
4.230e+1, 1.739e-6
4.240e+1, 1.749e-6
4.250e+1, 1.729e-6
4.260e+1, 1.737e-6
4.270e+1, 1.738e-6
4.280e+1, 1.720e-6
4.290e+1, 1.721e-6
4.300e+1, 1.722e-6
4.310e+1, 1.715e-6
4.320e+1, 1.711e-6
4.330e+1, 1.709e-6
4.340e+1, 1.697e-6
4.350e+1, 1.714e-6
4.360e+1, 1.683e-6
4.370e+1, 1.707e-6
4.380e+1, 1.710e-6
4.390e+1, 1.698e-6
4.400e+1, 1.687e-6
4.410e+1, 1.695e-6
4.420e+1, 1.680e-6
4.430e+1, 1.687e-6
4.440e+1, 1.679e-6
4.450e+1, 1.672e-6
4.460e+1, 1.657e-6
4.470e+1, 1.701e-6
4.480e+1, 1.642e-6
4.490e+1, 1.681e-6
4.500e+1, 1.654e-6
4.510e+1, 1.679e-6
4.520e+1, 1.641e-6
4.530e+1, 1.661e-6
4.540e+1, 1.639e-6
4.550e+1, 1.664e-6
4.560e+1, 1.627e-6
4.570e+1, 1.668e-6
4.580e+1, 1.616e-6
4.590e+1, 1.658e-6
4.600e+1, 1.630e-6
4.610e+1, 1.648e-6
4.620e+1, 1.617e-6
4.630e+1, 1.663e-6
4.640e+1, 1.622e-6
4.650e+1, 1.626e-6
4.660e+1, 1.624e-6
4.670e+1, 1.634e-6
4.680e+1, 1.616e-6
4.690e+1, 1.622e-6
4.700e+1, 1.609e-6
4.710e+1, 1.620e-6
4.720e+1, 1.607e-6
4.730e+1, 1.614e-6
4.740e+1, 1.607e-6
4.750e+1, 1.632e-6
4.760e+1, 1.596e-6
4.770e+1, 1.626e-6
4.780e+1, 1.592e-6
4.790e+1, 1.611e-6
4.800e+1, 1.606e-6
4.810e+1, 1.593e-6
4.820e+1, 1.615e-6
4.830e+1, 1.591e-6
4.840e+1, 1.604e-6
4.850e+1, 1.584e-6
4.860e+1, 1.587e-6
4.870e+1, 1.588e-6
4.880e+1, 1.584e-6
4.890e+1, 1.582e-6
4.900e+1, 1.583e-6
4.910e+1, 1.571e-6
4.920e+1, 1.590e-6
4.930e+1, 1.570e-6
4.940e+1, 1.576e-6
4.950e+1, 1.565e-6
4.960e+1, 1.575e-6
4.970e+1, 1.555e-6
4.980e+1, 1.566e-6
4.990e+1, 1.548e-6
5.000e+1, 1.578e-6
5.010e+1, 1.552e-6
5.020e+1, 1.562e-6
5.030e+1, 1.538e-6
5.040e+1, 1.572e-6
5.050e+1, 1.531e-6
5.060e+1, 1.555e-6
5.070e+1, 1.532e-6
5.080e+1, 1.555e-6
5.090e+1, 1.531e-6
5.100e+1, 1.565e-6
5.110e+1, 1.522e-6
5.120e+1, 1.557e-6
5.130e+1, 1.523e-6
5.140e+1, 1.536e-6
5.150e+1, 1.538e-6
5.160e+1, 1.533e-6
5.170e+1, 1.534e-6
5.180e+1, 1.533e-6
5.190e+1, 1.513e-6
5.200e+1, 1.528e-6
5.210e+1, 1.529e-6
5.220e+1, 1.517e-6
5.230e+1, 1.517e-6
5.240e+1, 1.513e-6
5.250e+1, 1.517e-6
5.260e+1, 1.504e-6
5.270e+1, 1.514e-6
5.280e+1, 1.507e-6
5.290e+1, 1.509e-6
5.300e+1, 1.502e-6
5.310e+1, 1.504e-6
5.320e+1, 1.488e-6
5.330e+1, 1.508e-6
5.340e+1, 1.482e-6
5.350e+1, 1.509e-6
5.360e+1, 1.485e-6
5.370e+1, 1.491e-6
5.380e+1, 1.488e-6
5.390e+1, 1.503e-6
5.400e+1, 1.476e-6
5.410e+1, 1.518e-6
5.420e+1, 1.468e-6
5.430e+1, 1.487e-6
5.440e+1, 1.488e-6
5.450e+1, 1.495e-6
5.460e+1, 1.468e-6
5.470e+1, 1.495e-6
5.480e+1, 1.481e-6
5.490e+1, 1.482e-6
5.500e+1, 1.489e-6
5.510e+1, 1.485e-6
5.520e+1, 1.480e-6
5.530e+1, 1.485e-6
5.540e+1, 1.479e-6
5.550e+1, 1.474e-6
5.560e+1, 1.465e-6
5.570e+1, 1.474e-6
5.580e+1, 1.468e-6
5.590e+1, 1.470e-6
5.600e+1, 1.463e-6
5.610e+1, 1.479e-6
5.620e+1, 1.467e-6
5.630e+1, 1.458e-6
5.640e+1, 1.475e-6
5.650e+1, 1.458e-6
5.660e+1, 1.465e-6
5.670e+1, 1.460e-6
5.680e+1, 1.460e-6
5.690e+1, 1.452e-6
5.700e+1, 1.470e-6
5.710e+1, 1.433e-6
5.720e+1, 1.474e-6
5.730e+1, 1.445e-6
5.740e+1, 1.451e-6
5.750e+1, 1.430e-6
5.760e+1, 1.472e-6
5.770e+1, 1.433e-6
5.780e+1, 1.462e-6
5.790e+1, 1.432e-6
5.800e+1, 1.445e-6
5.810e+1, 1.443e-6
5.820e+1, 1.454e-6
5.830e+1, 1.418e-6
5.840e+1, 1.443e-6
5.850e+1, 1.426e-6
5.860e+1, 1.444e-6
5.870e+1, 1.423e-6
5.880e+1, 1.437e-6
5.890e+1, 1.422e-6
5.900e+1, 1.439e-6
5.910e+1, 1.406e-6
5.920e+1, 1.450e-6
5.930e+1, 1.423e-6
5.940e+1, 1.435e-6
5.950e+1, 1.415e-6
5.960e+1, 1.431e-6
5.970e+1, 1.414e-6
5.980e+1, 1.448e-6
5.990e+1, 1.402e-6
6.000e+1, 1.435e-6
6.010e+1, 1.421e-6
6.020e+1, 1.423e-6
6.030e+1, -6.083e-7
6.040e+1, -2.204e-7
6.050e+1, -8.795e-8
6.060e+1, -3.456e-8
6.070e+1, -8.802e-9
6.080e+1, 7.483e-9
6.090e+1, 2.083e-8
6.100e+1, 3.286e-8
6.110e+1, 4.109e-8
6.120e+1, 4.677e-8
6.130e+1, 5.378e-8
6.140e+1, 5.634e-8
6.150e+1, 6.183e-8
6.160e+1, 6.202e-8
6.170e+1, 6.874e-8
6.180e+1, 6.760e-8
6.190e+1, 7.243e-8
6.200e+1, 7.101e-8
6.210e+1, 7.755e-8
6.220e+1, 7.357e-8
6.230e+1, 7.982e-8
6.240e+1, 7.338e-8
6.250e+1, 8.474e-8
6.260e+1, 7.821e-8
6.270e+1, 8.654e-8
6.280e+1, 7.953e-8
6.290e+1, 8.834e-8
6.300e+1, 8.162e-8
6.310e+1, 8.976e-8
6.320e+1, 8.266e-8
6.330e+1, 9.156e-8
6.340e+1, 8.436e-8
6.350e+1, 9.213e-8
6.360e+1, 8.446e-8
6.370e+1, 9.393e-8
6.380e+1, 8.588e-8
6.390e+1, 9.487e-8
6.400e+1, 8.701e-8
6.410e+1, 9.601e-8
6.420e+1, 8.758e-8
6.430e+1, 9.629e-8
6.440e+1, 8.862e-8
6.450e+1, 9.762e-8
6.460e+1, 8.938e-8
6.470e+1, 9.800e-8
6.480e+1, 9.061e-8
6.490e+1, 9.800e-8
6.500e+1, 9.090e-8
6.510e+1, 9.866e-8
6.520e+1, 9.194e-8
6.530e+1, 9.913e-8
6.540e+1, 9.336e-8
6.550e+1, 9.885e-8
6.560e+1, 9.421e-8
6.570e+1, 9.932e-8
6.580e+1, 9.535e-8
6.590e+1, 9.677e-8
6.600e+1, 9.099e-8
6.610e+1, 9.317e-8
6.620e+1, 9.790e-8
6.630e+1, 9.667e-8
6.640e+1, 9.705e-8
6.650e+1, 9.866e-8
6.660e+1, 1.015e-7
6.670e+1, 9.667e-8
6.680e+1, 1.014e-7
6.690e+1, 9.620e-8
6.700e+1, 1.022e-7
6.710e+1, 9.572e-8
6.720e+1, 1.036e-7
6.730e+1, 9.610e-8
6.740e+1, 9.856e-8
6.750e+1, 9.809e-8
6.760e+1, 1.059e-7
6.770e+1, 9.667e-8
6.780e+1, 1.059e-7
6.790e+1, 9.781e-8
6.800e+1, 1.042e-7
6.810e+1, 9.743e-8
6.820e+1, 1.047e-7
6.830e+1, 9.790e-8
6.840e+1, 1.046e-7
6.850e+1, 9.942e-8
6.860e+1, 1.040e-7
6.870e+1, 1.011e-7
6.880e+1, 1.020e-7
6.890e+1, 1.030e-7
6.900e+1, 1.010e-7
6.910e+1, 1.040e-7
6.920e+1, 1.004e-7
6.930e+1, 1.048e-7
6.940e+1, 9.970e-8
6.950e+1, 1.060e-7
6.960e+1, 9.894e-8
6.970e+1, 1.072e-7
6.980e+1, 9.942e-8
6.990e+1, 1.077e-7
7.000e+1, 9.809e-8
7.010e+1, 1.069e-7
7.020e+1, 9.875e-8
7.030e+1, 1.077e-7
7.040e+1, 9.875e-8
7.050e+1, 1.091e-7
7.060e+1, 9.932e-8
7.070e+1, 1.084e-7
7.080e+1, 9.951e-8
7.090e+1, 1.084e-7
7.100e+1, 1.005e-7
7.110e+1, 1.080e-7
7.120e+1, 9.998e-8
7.130e+1, 1.095e-7
7.140e+1, 1.007e-7
7.150e+1, 1.099e-7
7.160e+1, 1.003e-7
7.170e+1, 1.095e-7
7.180e+1, 1.006e-7
7.190e+1, 1.101e-7
7.200e+1, 1.001e-7
7.210e+1, 1.091e-7
7.220e+1, 1.009e-7
7.230e+1, 1.065e-7
7.240e+1, 9.838e-8
7.250e+1, 1.088e-7
7.260e+1, 1.010e-7
7.270e+1, 1.096e-7
7.280e+1, 1.024e-7
7.290e+1, 1.094e-7
7.300e+1, 1.008e-7
7.310e+1, 1.084e-7
7.320e+1, 1.009e-7
7.330e+1, 1.085e-7
7.340e+1, 1.017e-7
7.350e+1, 1.080e-7
7.360e+1, 1.024e-7
7.370e+1, 1.088e-7
7.380e+1, 1.030e-7
7.390e+1, 1.086e-7
7.400e+1, 1.027e-7
7.410e+1, 1.077e-7
7.420e+1, 1.049e-7
7.430e+1, 1.077e-7
7.440e+1, 1.057e-7
7.450e+1, 1.069e-7
7.460e+1, 1.055e-7
7.470e+1, 1.066e-7
7.480e+1, 1.080e-7
7.490e+1, 1.046e-7
7.500e+1, 1.095e-7
7.510e+1, 1.052e-7
7.520e+1, 1.095e-7
7.530e+1, 1.044e-7
7.540e+1, 1.100e-7
7.550e+1, 1.037e-7
7.560e+1, 1.112e-7
7.570e+1, 1.027e-7
7.580e+1, 1.111e-7
7.590e+1, 1.031e-7
7.600e+1, 1.111e-7
7.610e+1, 1.030e-7
7.620e+1, 1.112e-7
7.630e+1, 1.033e-7
7.640e+1, 1.094e-7
7.650e+1, 1.026e-7
7.660e+1, 1.111e-7
7.670e+1, 1.045e-7
7.680e+1, 1.094e-7
7.690e+1, 1.038e-7
7.700e+1, 1.110e-7
7.710e+1, 1.053e-7
7.720e+1, 1.096e-7
7.730e+1, 1.049e-7
7.740e+1, 1.088e-7
7.750e+1, 1.065e-7
7.760e+1, 1.080e-7
7.770e+1, 1.068e-7
7.780e+1, 1.083e-7
7.790e+1, 1.077e-7
7.800e+1, 1.077e-7
7.810e+1, 1.089e-7
7.820e+1, 1.074e-7
7.830e+1, 1.104e-7
7.840e+1, 1.052e-7
7.850e+1, 1.103e-7
7.860e+1, 1.063e-7
7.870e+1, 1.106e-7
7.880e+1, 1.051e-7
7.890e+1, 1.113e-7
7.900e+1, 1.047e-7
7.910e+1, 1.124e-7
7.920e+1, 1.058e-7
7.930e+1, 1.140e-7
7.940e+1, 1.052e-7
7.950e+1, 1.129e-7
7.960e+1, 1.043e-7
7.970e+1, 1.130e-7
7.980e+1, 1.042e-7
7.990e+1, 1.130e-7
8.000e+1, 1.042e-7
8.010e+1, 1.122e-7
8.020e+1, 1.039e-7
8.030e+1, 1.127e-7
8.040e+1, 1.042e-7
8.050e+1, 1.124e-7
8.060e+1, 1.050e-7
8.070e+1, 1.126e-7
8.080e+1, 1.048e-7
8.090e+1, 1.120e-7
8.100e+1, 1.055e-7
8.110e+1, 1.119e-7
8.120e+1, 1.054e-7
8.130e+1, 1.128e-7
8.140e+1, 1.059e-7
8.150e+1, 1.109e-7
8.160e+1, 1.065e-7
8.170e+1, 1.110e-7
8.180e+1, 1.064e-7
8.190e+1, 1.104e-7
8.200e+1, 1.073e-7
8.210e+1, 1.101e-7
8.220e+1, 1.078e-7
8.230e+1, 1.067e-7
8.240e+1, 1.064e-7
8.250e+1, 1.091e-7
8.260e+1, 1.092e-7
8.270e+1, 1.086e-7
8.280e+1, 1.104e-7
8.290e+1, 1.077e-7
8.300e+1, 1.107e-7
8.310e+1, 1.074e-7
8.320e+1, 1.132e-7
8.330e+1, 1.084e-7
8.340e+1, 1.117e-7
8.350e+1, 1.064e-7
8.360e+1, 1.119e-7
8.370e+1, 1.076e-7
8.380e+1, 1.131e-7
8.390e+1, 1.075e-7
8.400e+1, 1.141e-7
8.410e+1, 1.049e-7
8.420e+1, 1.136e-7
8.430e+1, 1.062e-7
8.440e+1, 1.145e-7
8.450e+1, 1.061e-7
8.460e+1, 1.143e-7
8.470e+1, 1.057e-7
8.480e+1, 1.146e-7
8.490e+1, 1.055e-7
8.500e+1, 1.139e-7
8.510e+1, 1.072e-7
8.520e+1, 1.146e-7
8.530e+1, 1.060e-7
8.540e+1, 1.132e-7
8.550e+1, 1.056e-7
8.560e+1, 1.130e-7
8.570e+1, 1.068e-7
8.580e+1, 1.130e-7
8.590e+1, 1.066e-7
8.600e+1, 1.131e-7
8.610e+1, 1.050e-7
8.620e+1, 1.135e-7
8.630e+1, 1.071e-7
8.640e+1, 1.130e-7
8.650e+1, 1.042e-7
8.660e+1, 1.129e-7
8.670e+1, 1.073e-7
8.680e+1, 1.124e-7
8.690e+1, 1.089e-7
8.700e+1, 1.111e-7
8.710e+1, 1.102e-7
8.720e+1, 1.125e-7
8.730e+1, 1.099e-7
8.740e+1, 1.116e-7
8.750e+1, 1.099e-7
8.760e+1, 1.104e-7
8.770e+1, 1.119e-7
8.780e+1, 1.099e-7
8.790e+1, 1.119e-7
8.800e+1, 1.091e-7
8.810e+1, 1.116e-7
8.820e+1, 1.088e-7
8.830e+1, 1.118e-7
8.840e+1, 1.084e-7
8.850e+1, 1.137e-7
8.860e+1, 1.081e-7
8.870e+1, 1.147e-7
8.880e+1, 1.077e-7
8.890e+1, 1.147e-7
8.900e+1, 1.092e-7
8.910e+1, 1.163e-7
8.920e+1, 1.073e-7
8.930e+1, 1.158e-7
8.940e+1, 1.081e-7
8.950e+1, 1.154e-7
8.960e+1, 1.076e-7
8.970e+1, 1.162e-7
8.980e+1, 1.080e-7
8.990e+1, 1.160e-7
9.000e+1, 1.081e-7
9.010e+1, 1.144e-7
9.020e+1, 1.077e-7
9.030e+1, 1.147e-7
9.040e+1, 6.505e-6
9.050e+1, 3.942e-6
9.060e+1, 3.292e-6
9.070e+1, 3.013e-6
9.080e+1, 2.881e-6
9.090e+1, 2.779e-6
9.100e+1, 2.700e-6
9.110e+1, 2.665e-6
9.120e+1, 2.618e-6
9.130e+1, 2.568e-6
9.140e+1, 2.546e-6
9.150e+1, 2.539e-6
9.160e+1, 2.480e-6
9.170e+1, 2.464e-6
9.180e+1, 2.485e-6
9.190e+1, 2.413e-6
9.200e+1, 2.434e-6
9.210e+1, 2.408e-6
9.220e+1, 2.427e-6
9.230e+1, 2.370e-6
9.240e+1, 2.359e-6
9.250e+1, 2.372e-6
9.260e+1, 2.364e-6
9.270e+1, 2.308e-6
9.280e+1, 2.343e-6
9.290e+1, 2.319e-6
9.300e+1, 2.349e-6
9.310e+1, 2.322e-6
9.320e+1, 2.318e-6
9.330e+1, 2.305e-6
9.340e+1, 2.297e-6
9.350e+1, 2.281e-6
9.360e+1, 2.302e-6
9.370e+1, 2.271e-6
9.380e+1, 2.314e-6
9.390e+1, 2.261e-6
9.400e+1, 2.277e-6
9.410e+1, 2.275e-6
9.420e+1, 2.230e-6
9.430e+1, 2.266e-6
9.440e+1, 2.231e-6
9.450e+1, 2.259e-6
9.460e+1, 2.244e-6
9.470e+1, 2.235e-6
9.480e+1, 2.217e-6
9.490e+1, 2.263e-6
9.500e+1, 2.211e-6
9.510e+1, 2.244e-6
9.520e+1, 2.219e-6
9.530e+1, 2.193e-6
9.540e+1, 2.214e-6
9.550e+1, 2.223e-6
9.560e+1, 2.198e-6
9.570e+1, 2.230e-6
9.580e+1, 2.191e-6
9.590e+1, 2.188e-6
9.600e+1, 2.207e-6
9.610e+1, 2.182e-6
9.620e+1, 2.180e-6
9.630e+1, 2.216e-6
9.640e+1, 2.195e-6
9.650e+1, 2.163e-6
9.660e+1, 2.179e-6
9.670e+1, 2.173e-6
9.680e+1, 2.194e-6
9.690e+1, 2.178e-6
9.700e+1, 2.158e-6
9.710e+1, 2.177e-6
9.720e+1, 2.181e-6
9.730e+1, 2.195e-6
9.740e+1, 2.167e-6
9.750e+1, 2.164e-6
9.760e+1, 2.176e-6
9.770e+1, 2.144e-6
9.780e+1, 2.180e-6
9.790e+1, 2.170e-6
9.800e+1, 2.116e-6
9.810e+1, 2.161e-6
9.820e+1, 2.139e-6
9.830e+1, 2.153e-6
9.840e+1, 2.128e-6
9.850e+1, 2.146e-6
9.860e+1, 2.163e-6
9.870e+1, 2.158e-6
9.880e+1, 2.130e-6
9.890e+1, 2.143e-6
9.900e+1, 2.156e-6
9.910e+1, 2.110e-6
9.920e+1, 2.127e-6
9.930e+1, 2.148e-6
9.940e+1, 2.119e-6
9.950e+1, 2.123e-6
9.960e+1, 2.139e-6
9.970e+1, 2.114e-6
9.980e+1, 2.134e-6
9.990e+1, 2.134e-6
1.000e+2, 2.113e-6
1.001e+2, 2.110e-6
1.002e+2, 2.154e-6
1.003e+2, 2.088e-6
1.004e+2, 2.130e-6
1.005e+2, 2.086e-6
1.006e+2, 2.103e-6
1.007e+2, 2.090e-6
1.008e+2, 2.112e-6
1.009e+2, 2.107e-6
1.010e+2, 2.120e-6
1.011e+2, 2.111e-6
1.012e+2, 2.109e-6
1.013e+2, 2.091e-6
1.014e+2, 2.113e-6
1.015e+2, 2.103e-6
1.016e+2, 2.110e-6
1.017e+2, 2.100e-6
1.018e+2, 2.083e-6
1.019e+2, 2.132e-6
1.020e+2, 2.091e-6
1.021e+2, 2.093e-6
1.022e+2, 2.094e-6
1.023e+2, 2.078e-6
1.024e+2, 2.064e-6
1.025e+2, 2.130e-6
1.026e+2, 2.070e-6
1.027e+2, 2.101e-6
1.028e+2, 2.064e-6
1.029e+2, 2.084e-6
1.030e+2, 2.073e-6
1.031e+2, 2.088e-6
1.032e+2, 2.059e-6
1.033e+2, 2.072e-6
1.034e+2, 2.078e-6
1.035e+2, 2.075e-6
1.036e+2, 2.062e-6
1.037e+2, 2.067e-6
1.038e+2, 2.070e-6
1.039e+2, 2.087e-6
1.040e+2, 2.073e-6
1.041e+2, 2.079e-6
1.042e+2, 2.056e-6
1.043e+2, 2.072e-6
1.044e+2, 2.070e-6
1.045e+2, 2.045e-6
1.046e+2, 2.053e-6
1.047e+2, 2.056e-6
1.048e+2, 2.068e-6
1.049e+2, 2.047e-6
1.050e+2, 2.095e-6
1.051e+2, 2.040e-6
1.052e+2, 2.052e-6
1.053e+2, 2.042e-6
1.054e+2, 2.084e-6
1.055e+2, 2.039e-6
1.056e+2, 2.060e-6
1.057e+2, 2.043e-6
1.058e+2, 2.064e-6
1.059e+2, 2.024e-6
1.060e+2, 2.062e-6
1.061e+2, 2.038e-6
1.062e+2, 2.055e-6
1.063e+2, 2.037e-6
1.064e+2, 2.028e-6
1.065e+2, 2.040e-6
1.066e+2, 2.054e-6
1.067e+2, 2.025e-6
1.068e+2, 2.074e-6
1.069e+2, 2.041e-6
1.070e+2, 2.048e-6
1.071e+2, 2.051e-6
1.072e+2, 2.034e-6
1.073e+2, 2.030e-6
1.074e+2, 2.021e-6
1.075e+2, 2.040e-6
1.076e+2, 2.035e-6
1.077e+2, 2.025e-6
1.078e+2, 2.029e-6
1.079e+2, 2.052e-6
1.080e+2, 2.009e-6
1.081e+2, 2.034e-6
1.082e+2, 2.035e-6
1.083e+2, 2.046e-6
1.084e+2, 2.045e-6
1.085e+2, 2.049e-6
1.086e+2, 1.990e-6
1.087e+2, 2.048e-6
1.088e+2, 2.003e-6
1.089e+2, 2.026e-6
1.090e+2, 2.035e-6
1.091e+2, 2.018e-6
1.092e+2, 2.015e-6
1.093e+2, 2.027e-6
1.094e+2, 1.991e-6
1.095e+2, 2.019e-6
1.096e+2, 2.020e-6
1.097e+2, 2.012e-6
1.098e+2, 2.014e-6
1.099e+2, 2.020e-6
1.100e+2, 2.011e-6
1.101e+2, 2.039e-6
1.102e+2, 2.002e-6
1.103e+2, 2.055e-6
1.104e+2, 2.014e-6
1.105e+2, 2.005e-6
1.106e+2, 2.020e-6
1.107e+2, 2.008e-6
1.108e+2, 2.020e-6
1.109e+2, 1.994e-6
1.110e+2, 1.999e-6
1.111e+2, 2.016e-6
1.112e+2, 2.009e-6
1.113e+2, 2.004e-6
1.114e+2, 2.009e-6
1.115e+2, 2.007e-6
1.116e+2, 1.995e-6
1.117e+2, 2.000e-6
1.118e+2, 1.998e-6
1.119e+2, 1.985e-6
1.120e+2, 1.998e-6
1.121e+2, 2.000e-6
1.122e+2, 1.989e-6
1.123e+2, 2.026e-6
1.124e+2, 2.007e-6
1.125e+2, 1.942e-6
1.126e+2, 2.014e-6
1.127e+2, 1.981e-6
1.128e+2, 2.006e-6
1.129e+2, 1.939e-6
1.130e+2, 2.007e-6
1.131e+2, 1.959e-6
1.132e+2, 1.987e-6
1.133e+2, 2.007e-6
1.134e+2, 1.994e-6
1.135e+2, 1.965e-6
1.136e+2, 2.018e-6
1.137e+2, 1.995e-6
1.138e+2, 1.970e-6
1.139e+2, 2.021e-6
1.140e+2, 1.980e-6
1.141e+2, 1.985e-6
1.142e+2, 2.009e-6
1.143e+2, 1.959e-6
1.144e+2, 2.027e-6
1.145e+2, 1.974e-6
1.146e+2, 1.977e-6
1.147e+2, 1.996e-6
1.148e+2, 1.990e-6
1.149e+2, 1.979e-6
1.150e+2, 1.968e-6
1.151e+2, 1.990e-6
1.152e+2, 1.966e-6
1.153e+2, 1.991e-6
1.154e+2, 1.953e-6
1.155e+2, 1.979e-6
1.156e+2, 1.971e-6
1.157e+2, 2.000e-6
1.158e+2, 1.948e-6
1.159e+2, 1.968e-6
1.160e+2, 1.971e-6
1.161e+2, 2.002e-6
1.162e+2, 1.945e-6
1.163e+2, 1.961e-6
1.164e+2, 1.950e-6
1.165e+2, 1.985e-6
1.166e+2, 1.957e-6
1.167e+2, 1.962e-6
1.168e+2, 1.988e-6
1.169e+2, 1.981e-6
1.170e+2, 1.953e-6
1.171e+2, 1.944e-6
1.172e+2, 1.964e-6
1.173e+2, 1.993e-6
1.174e+2, 1.961e-6
1.175e+2, 1.996e-6
1.176e+2, 1.971e-6
1.177e+2, 1.945e-6
1.178e+2, 1.988e-6
1.179e+2, 1.972e-6
1.180e+2, 1.982e-6
1.181e+2, 1.925e-6
1.182e+2, 1.968e-6
1.183e+2, 1.961e-6
1.184e+2, 1.955e-6
1.185e+2, 1.950e-6
1.186e+2, 1.969e-6
1.187e+2, 1.948e-6
1.188e+2, 1.966e-6
1.189e+2, 1.956e-6
1.190e+2, 1.943e-6
1.191e+2, 1.938e-6
1.192e+2, 1.994e-6
1.193e+2, 1.923e-6
1.194e+2, 1.962e-6
1.195e+2, 1.956e-6
1.196e+2, 1.954e-6
1.197e+2, 1.945e-6
1.198e+2, 1.982e-6
1.199e+2, 1.933e-6
1.200e+2, 1.959e-6
1.201e+2, 1.933e-6
1.202e+2, 1.938e-6
1.203e+2, 1.944e-6
1.204e+2, -5.314e-7
1.205e+2, -1.824e-7
1.206e+2, -5.491e-8
1.207e+2, -1.079e-8
1.208e+2, 1.960e-8
1.209e+2, 3.570e-8
1.210e+2, 5.160e-8
1.211e+2, 5.937e-8
1.212e+2, 6.827e-8
1.213e+2, 7.527e-8
1.214e+2, 7.849e-8
1.215e+2, 8.512e-8
1.216e+2, 8.616e-8
1.217e+2, 9.251e-8
1.218e+2, 9.156e-8
1.219e+2, 9.809e-8
1.220e+2, 9.459e-8
1.221e+2, 1.024e-7
1.222e+2, 9.800e-8
1.223e+2, 1.031e-7
1.224e+2, 9.885e-8
1.225e+2, 1.064e-7
1.226e+2, 1.022e-7
1.227e+2, 1.131e-7
1.228e+2, 1.039e-7
1.229e+2, 1.129e-7
1.230e+2, 1.048e-7
1.231e+2, 1.148e-7
1.232e+2, 1.070e-7
1.233e+2, 1.162e-7
1.234e+2, 1.087e-7
1.235e+2, 1.157e-7
1.236e+2, 1.099e-7
1.237e+2, 1.176e-7
1.238e+2, 1.109e-7
1.239e+2, 1.171e-7
1.240e+2, 1.116e-7
1.241e+2, 1.174e-7
1.242e+2, 1.141e-7
1.243e+2, 1.174e-7
1.244e+2, 1.137e-7
1.245e+2, 1.184e-7
1.246e+2, 1.154e-7
1.247e+2, 1.185e-7
1.248e+2, 1.181e-7
1.249e+2, 1.186e-7
1.250e+2, 1.182e-7
1.251e+2, 1.184e-7
1.252e+2, 1.184e-7
1.253e+2, 1.173e-7
1.254e+2, 1.209e-7
1.255e+2, 1.179e-7
1.256e+2, 1.215e-7
1.257e+2, 1.176e-7
1.258e+2, 1.223e-7
1.259e+2, 1.175e-7
1.260e+2, 1.237e-7
1.261e+2, 1.166e-7
1.262e+2, 1.220e-7
1.263e+2, 1.133e-7
1.264e+2, 1.238e-7
1.265e+2, 1.171e-7
1.266e+2, 1.242e-7
1.267e+2, 1.157e-7
1.268e+2, 1.242e-7
1.269e+2, 1.171e-7
1.270e+2, 1.258e-7
1.271e+2, 1.171e-7
1.272e+2, 1.262e-7
1.273e+2, 1.176e-7
1.274e+2, 1.253e-7
1.275e+2, 1.180e-7
1.276e+2, 1.259e-7
1.277e+2, 1.182e-7
1.278e+2, 1.252e-7
1.279e+2, 1.178e-7
1.280e+2, 1.242e-7
1.281e+2, 1.184e-7
1.282e+2, 1.251e-7
1.283e+2, 1.191e-7
1.284e+2, 1.240e-7
1.285e+2, 1.214e-7
1.286e+2, 1.239e-7
1.287e+2, 1.219e-7
1.288e+2, 1.236e-7
1.289e+2, 1.223e-7
1.290e+2, 1.229e-7
1.291e+2, 1.242e-7
1.292e+2, 1.246e-7
1.293e+2, 1.237e-7
1.294e+2, 1.211e-7
1.295e+2, 1.241e-7
1.296e+2, 1.213e-7
1.297e+2, 1.261e-7
1.298e+2, 1.212e-7
1.299e+2, 1.260e-7
1.300e+2, 1.194e-7
1.301e+2, 1.265e-7
1.302e+2, 1.204e-7
1.303e+2, 1.272e-7
1.304e+2, 1.220e-7
1.305e+2, 1.290e-7
1.306e+2, 1.225e-7
1.307e+2, 1.296e-7
1.308e+2, 1.210e-7
1.309e+2, 1.297e-7
1.310e+2, 1.205e-7
1.311e+2, 1.306e-7
1.312e+2, 1.202e-7
1.313e+2, 1.300e-7
1.314e+2, 1.220e-7
1.315e+2, 1.298e-7
1.316e+2, 1.203e-7
1.317e+2, 1.316e-7
1.318e+2, 1.231e-7
1.319e+2, 1.311e-7
1.320e+2, 1.231e-7
1.321e+2, 1.310e-7
1.322e+2, 1.221e-7
1.323e+2, 1.280e-7
1.324e+2, 1.207e-7
1.325e+2, 1.257e-7
1.326e+2, 1.218e-7
1.327e+2, 1.288e-7
1.328e+2, 1.234e-7
1.329e+2, 1.253e-7
1.330e+2, 1.222e-7
1.331e+2, 1.271e-7
1.332e+2, 1.226e-7
1.333e+2, 1.272e-7
1.334e+2, 1.234e-7
1.335e+2, 1.273e-7
1.336e+2, 1.273e-7
1.337e+2, 1.271e-7
1.338e+2, 1.271e-7
1.339e+2, 1.267e-7
1.340e+2, 1.261e-7
1.341e+2, 1.253e-7
1.342e+2, 1.275e-7
1.343e+2, 1.241e-7
1.344e+2, 1.283e-7
1.345e+2, 1.237e-7
1.346e+2, 1.293e-7
1.347e+2, 1.237e-7
1.348e+2, 1.299e-7
1.349e+2, 1.227e-7
1.350e+2, 1.295e-7
1.351e+2, 1.225e-7
1.352e+2, 1.298e-7
1.353e+2, 1.231e-7
1.354e+2, 1.303e-7
1.355e+2, 1.222e-7
1.356e+2, 1.298e-7
1.357e+2, 1.217e-7
1.358e+2, 1.310e-7
1.359e+2, 1.229e-7
1.360e+2, 1.300e-7
1.361e+2, 1.213e-7
1.362e+2, 1.288e-7
1.363e+2, 1.224e-7
1.364e+2, 1.278e-7
1.365e+2, 1.230e-7
1.366e+2, 1.282e-7
1.367e+2, 1.236e-7
1.368e+2, 1.251e-7
1.369e+2, 1.251e-7
1.370e+2, 1.266e-7
1.371e+2, 1.261e-7
1.372e+2, 1.270e-7
1.373e+2, 1.269e-7
1.374e+2, 1.251e-7
1.375e+2, 1.288e-7
1.376e+2, 1.244e-7
1.377e+2, 1.298e-7
1.378e+2, 1.245e-7
1.379e+2, 1.302e-7
1.380e+2, 1.232e-7
1.381e+2, 1.309e-7
1.382e+2, 1.220e-7
1.383e+2, 1.305e-7
1.384e+2, 1.225e-7
1.385e+2, 1.306e-7
1.386e+2, 1.232e-7
1.387e+2, 1.313e-7
1.388e+2, 1.231e-7
1.389e+2, 1.298e-7
1.390e+2, 1.240e-7
1.391e+2, 1.288e-7
1.392e+2, 1.239e-7
1.393e+2, 1.288e-7
1.394e+2, 1.252e-7
1.395e+2, 1.280e-7
1.396e+2, 1.267e-7
1.397e+2, 1.268e-7
1.398e+2, 1.281e-7
1.399e+2, 1.268e-7
1.400e+2, 1.291e-7
1.401e+2, 1.253e-7
1.402e+2, 1.293e-7
1.403e+2, 1.244e-7
1.404e+2, 1.305e-7
1.405e+2, 1.243e-7
1.406e+2, 1.319e-7
1.407e+2, 1.235e-7
1.408e+2, 1.314e-7
1.409e+2, 1.235e-7
1.410e+2, 1.316e-7
1.411e+2, 1.232e-7
1.412e+2, 1.304e-7
1.413e+2, 1.204e-7
1.414e+2, 1.274e-7
1.415e+2, 1.258e-7
1.416e+2, 1.273e-7
1.417e+2, 1.222e-7
1.418e+2, 1.275e-7
1.419e+2, 1.288e-7
1.420e+2, 1.292e-7
1.421e+2, 1.268e-7
1.422e+2, 1.269e-7
1.423e+2, 1.280e-7
1.424e+2, 1.248e-7
1.425e+2, 1.266e-7
1.426e+2, 1.259e-7
1.427e+2, 1.302e-7
1.428e+2, 1.254e-7
1.429e+2, 1.313e-7
1.430e+2, 1.241e-7
1.431e+2, 1.317e-7
1.432e+2, 1.237e-7
1.433e+2, 1.319e-7
1.434e+2, 1.241e-7
1.435e+2, 1.320e-7
1.436e+2, 1.240e-7
1.437e+2, 1.316e-7
1.438e+2, 1.235e-7
1.439e+2, 1.323e-7
1.440e+2, 1.203e-7
1.441e+2, 1.273e-7
1.442e+2, 1.196e-7
1.443e+2, 1.313e-7
1.444e+2, 1.243e-7
1.445e+2, 1.319e-7
1.446e+2, 1.245e-7
1.447e+2, 1.304e-7
1.448e+2, 1.251e-7
1.449e+2, 1.308e-7
1.450e+2, 1.255e-7
1.451e+2, 1.309e-7
1.452e+2, 1.262e-7
1.453e+2, 1.298e-7
1.454e+2, 1.270e-7
1.455e+2, 1.290e-7
1.456e+2, 1.276e-7
1.457e+2, 1.287e-7
1.458e+2, 1.282e-7
1.459e+2, 1.289e-7
1.460e+2, 1.288e-7
1.461e+2, 1.270e-7
1.462e+2, 1.285e-7
1.463e+2, 1.273e-7
1.464e+2, 1.300e-7
1.465e+2, 1.262e-7
1.466e+2, 1.313e-7
1.467e+2, 1.269e-7
1.468e+2, 1.314e-7
1.469e+2, 1.234e-7
1.470e+2, 1.323e-7
1.471e+2, 1.251e-7
1.472e+2, 1.329e-7
1.473e+2, 1.244e-7
1.474e+2, 1.322e-7
1.475e+2, 1.252e-7
1.476e+2, 1.325e-7
1.477e+2, 1.250e-7
1.478e+2, 1.326e-7
1.479e+2, 1.256e-7
1.480e+2, 1.330e-7
1.481e+2, 1.247e-7
1.482e+2, 1.336e-7
1.483e+2, 1.249e-7
1.484e+2, 1.320e-7
1.485e+2, 1.245e-7
1.486e+2, 1.325e-7
1.487e+2, 1.250e-7
1.488e+2, 1.326e-7
1.489e+2, 1.261e-7
1.490e+2, 1.313e-7
1.491e+2, 1.263e-7
1.492e+2, 1.311e-7
1.493e+2, 1.268e-7
1.494e+2, 1.307e-7
1.495e+2, 1.273e-7
1.496e+2, 1.313e-7
1.497e+2, 1.279e-7
1.498e+2, 1.297e-7
1.499e+2, 1.280e-7
1.500e+2, 1.292e-7
1.501e+2, 1.302e-7
1.502e+2, 1.289e-7
1.503e+2, 1.312e-7
1.504e+2, 6.573e-6
1.505e+2, 3.966e-6
1.506e+2, 3.369e-6
1.507e+2, 3.096e-6
1.508e+2, 2.993e-6
1.509e+2, 2.888e-6
1.510e+2, 2.796e-6
1.511e+2, 2.757e-6
1.512e+2, 2.741e-6
1.513e+2, 2.697e-6
1.514e+2, 2.629e-6
1.515e+2, 2.619e-6
1.516e+2, 2.591e-6
1.517e+2, 2.627e-6
1.518e+2, 2.584e-6
1.519e+2, 2.566e-6
1.520e+2, 2.535e-6
1.521e+2, 2.541e-6
1.522e+2, 2.518e-6
1.523e+2, 2.533e-6
1.524e+2, 2.495e-6
1.525e+2, 2.515e-6
1.526e+2, 2.473e-6
1.527e+2, 2.497e-6
1.528e+2, 2.466e-6
1.529e+2, 2.476e-6
1.530e+2, 2.470e-6
1.531e+2, 2.478e-6
1.532e+2, 2.447e-6
1.533e+2, 2.456e-6
1.534e+2, 2.444e-6
1.535e+2, 2.426e-6
1.536e+2, 2.421e-6
1.537e+2, 2.477e-6
1.538e+2, 2.424e-6
1.539e+2, 2.434e-6
1.540e+2, 2.442e-6
1.541e+2, 2.402e-6
1.542e+2, 2.428e-6
1.543e+2, 2.401e-6
1.544e+2, 2.391e-6
1.545e+2, 2.348e-6
1.546e+2, 2.424e-6
1.547e+2, 2.393e-6
1.548e+2, 2.412e-6
1.549e+2, 2.380e-6
1.550e+2, 2.352e-6
1.551e+2, 2.376e-6
1.552e+2, 2.373e-6
1.553e+2, 2.341e-6
1.554e+2, 2.378e-6
1.555e+2, 2.333e-6
1.556e+2, 2.365e-6
1.557e+2, 2.358e-6
1.558e+2, 2.361e-6
1.559e+2, 2.354e-6
1.560e+2, 2.397e-6
1.561e+2, 2.326e-6
1.562e+2, 2.388e-6
1.563e+2, 2.376e-6
1.564e+2, 2.326e-6
1.565e+2, 2.364e-6
1.566e+2, 2.357e-6
1.567e+2, 2.339e-6
1.568e+2, 2.336e-6
1.569e+2, 2.346e-6
1.570e+2, 2.344e-6
1.571e+2, 2.393e-6
1.572e+2, 2.330e-6
1.573e+2, 2.340e-6
1.574e+2, 2.340e-6
1.575e+2, 2.310e-6
1.576e+2, 2.348e-6
1.577e+2, 2.315e-6
1.578e+2, 2.324e-6
1.579e+2, 2.324e-6
1.580e+2, 2.320e-6
1.581e+2, 2.301e-6
1.582e+2, 2.304e-6
1.583e+2, 2.359e-6
1.584e+2, 2.311e-6
1.585e+2, 2.323e-6
1.586e+2, 2.311e-6
1.587e+2, 2.323e-6
1.588e+2, 2.293e-6
1.589e+2, 2.307e-6
1.590e+2, 2.294e-6
1.591e+2, 2.319e-6
1.592e+2, 2.303e-6
1.593e+2, 2.294e-6
1.594e+2, 2.285e-6
1.595e+2, 2.298e-6
1.596e+2, 2.302e-6
1.597e+2, 2.313e-6
1.598e+2, 2.282e-6
1.599e+2, 2.303e-6
1.600e+2, 2.264e-6
1.601e+2, 2.302e-6
1.602e+2, 2.314e-6
1.603e+2, 2.306e-6
1.604e+2, 2.310e-6
1.605e+2, 2.305e-6
1.606e+2, 2.285e-6
1.607e+2, 2.307e-6
1.608e+2, 2.261e-6
1.609e+2, 2.303e-6
1.610e+2, 2.307e-6
1.611e+2, 2.268e-6
1.612e+2, 2.295e-6
1.613e+2, 2.299e-6
1.614e+2, 2.295e-6
1.615e+2, 2.276e-6
1.616e+2, 2.274e-6
1.617e+2, 2.289e-6
1.618e+2, 2.278e-6
1.619e+2, 2.280e-6
1.620e+2, 2.271e-6
1.621e+2, 2.271e-6
1.622e+2, 2.318e-6
1.623e+2, 2.269e-6
1.624e+2, 2.262e-6
1.625e+2, 2.276e-6
1.626e+2, 2.315e-6
1.627e+2, 2.263e-6
1.628e+2, 2.293e-6
1.629e+2, 2.260e-6
1.630e+2, 2.288e-6
1.631e+2, 2.244e-6
1.632e+2, 2.283e-6
1.633e+2, 2.250e-6
1.634e+2, 2.247e-6
1.635e+2, 2.263e-6
1.636e+2, 2.279e-6
1.637e+2, 2.258e-6
1.638e+2, 2.249e-6
1.639e+2, 2.252e-6
1.640e+2, 2.260e-6
1.641e+2, 2.224e-6
1.642e+2, 2.299e-6
1.643e+2, 2.232e-6
1.644e+2, 2.291e-6
1.645e+2, 2.292e-6
1.646e+2, 2.239e-6
1.647e+2, 2.277e-6
1.648e+2, 2.268e-6
1.649e+2, 2.231e-6
1.650e+2, 2.241e-6
1.651e+2, 2.282e-6
1.652e+2, 2.229e-6
1.653e+2, 2.265e-6
1.654e+2, 2.246e-6
1.655e+2, 2.275e-6
1.656e+2, 2.244e-6
1.657e+2, 2.285e-6
1.658e+2, 2.214e-6
1.659e+2, 2.265e-6
1.660e+2, 2.259e-6
1.661e+2, 2.249e-6
1.662e+2, 2.223e-6
1.663e+2, 2.248e-6
1.664e+2, 2.245e-6
1.665e+2, 2.251e-6
1.666e+2, 2.239e-6
1.667e+2, 2.247e-6
1.668e+2, 2.228e-6
1.669e+2, 2.265e-6
1.670e+2, 2.193e-6
1.671e+2, 2.242e-6
1.672e+2, 2.258e-6
1.673e+2, 2.211e-6
1.674e+2, 2.242e-6
1.675e+2, 2.252e-6
1.676e+2, 2.214e-6
1.677e+2, 2.242e-6
1.678e+2, 2.213e-6
1.679e+2, 2.216e-6
1.680e+2, 2.230e-6
1.681e+2, 2.230e-6
1.682e+2, 2.212e-6
1.683e+2, 2.247e-6
1.684e+2, 2.217e-6
1.685e+2, 2.242e-6
1.686e+2, 2.235e-6
1.687e+2, 2.219e-6
1.688e+2, 2.252e-6
1.689e+2, 2.200e-6
1.690e+2, 2.224e-6
1.691e+2, 2.228e-6
1.692e+2, 2.219e-6
1.693e+2, 2.215e-6
1.694e+2, 2.241e-6
1.695e+2, 2.205e-6
1.696e+2, 2.222e-6
1.697e+2, 2.196e-6
1.698e+2, 2.232e-6
1.699e+2, 2.201e-6
1.700e+2, 2.243e-6
1.701e+2, 2.177e-6
1.702e+2, 2.232e-6
1.703e+2, 2.214e-6
1.704e+2, 2.234e-6
1.705e+2, 2.206e-6
1.706e+2, 2.229e-6
1.707e+2, 2.202e-6
1.708e+2, 2.223e-6
1.709e+2, 2.227e-6
1.710e+2, 2.200e-6
1.711e+2, 2.209e-6
1.712e+2, 2.225e-6
1.713e+2, 2.179e-6
1.714e+2, 2.238e-6
1.715e+2, 2.193e-6
1.716e+2, 2.231e-6
1.717e+2, 2.222e-6
1.718e+2, 2.196e-6
1.719e+2, 2.217e-6
1.720e+2, 2.227e-6
1.721e+2, 2.191e-6
1.722e+2, 2.186e-6
1.723e+2, 2.231e-6
1.724e+2, 2.200e-6
1.725e+2, 2.221e-6
1.726e+2, 2.200e-6
1.727e+2, 2.205e-6
1.728e+2, 2.208e-6
1.729e+2, 2.163e-6
1.730e+2, 2.196e-6
1.731e+2, 2.214e-6
1.732e+2, 2.203e-6
1.733e+2, 2.180e-6
1.734e+2, 2.181e-6
1.735e+2, 2.214e-6
1.736e+2, 2.214e-6
1.737e+2, 2.165e-6
1.738e+2, 2.234e-6
1.739e+2, 2.171e-6
1.740e+2, 2.159e-6
1.741e+2, 2.231e-6
1.742e+2, 2.205e-6
1.743e+2, 2.213e-6
1.744e+2, 2.179e-6
1.745e+2, 2.183e-6
1.746e+2, 2.188e-6
1.747e+2, 2.183e-6
1.748e+2, 2.198e-6
1.749e+2, 2.183e-6
1.750e+2, 2.180e-6
1.751e+2, 2.198e-6
1.752e+2, 2.166e-6
1.753e+2, 2.242e-6
1.754e+2, 2.182e-6
1.755e+2, 2.203e-6
1.756e+2, 2.162e-6
1.757e+2, 2.194e-6
1.758e+2, 2.170e-6
1.759e+2, 2.174e-6
1.760e+2, 2.184e-6
1.761e+2, 2.199e-6
1.762e+2, 2.197e-6
1.763e+2, 2.215e-6
1.764e+2, 2.205e-6
1.765e+2, 2.200e-6
1.766e+2, 2.180e-6
1.767e+2, 2.164e-6
1.768e+2, 2.177e-6
1.769e+2, 2.158e-6
1.770e+2, 2.219e-6
1.771e+2, 2.137e-6
1.772e+2, 2.206e-6
1.773e+2, 2.194e-6
1.774e+2, 2.161e-6
1.775e+2, 2.172e-6
1.776e+2, 2.169e-6
1.777e+2, 2.138e-6
1.778e+2, 2.176e-6
1.779e+2, 2.169e-6
1.780e+2, 2.186e-6
1.781e+2, 2.167e-6
1.782e+2, 2.203e-6
1.783e+2, 2.159e-6
1.784e+2, 2.204e-6
1.785e+2, 2.144e-6
1.786e+2, 2.168e-6
1.787e+2, 2.156e-6
1.788e+2, 2.174e-6
1.789e+2, 2.167e-6
1.790e+2, 2.187e-6
1.791e+2, 2.161e-6
1.792e+2, 2.183e-6
1.793e+2, 2.184e-6
1.794e+2, 2.179e-6
1.795e+2, 2.132e-6
1.796e+2, 2.194e-6
1.797e+2, 2.161e-6
1.798e+2, 2.178e-6
1.799e+2, 2.167e-6
1.800e+2, 2.178e-6
1.801e+2, 2.176e-6
1.802e+2, -7.161e-7
1.803e+2, -1.464e-7
1.804e+2, -3.626e-8
1.805e+2, 8.051e-9
1.806e+2, 3.589e-8
1.807e+2, 5.331e-8
1.808e+2, 6.789e-8
1.809e+2, 7.991e-8
1.810e+2, 8.550e-8
1.811e+2, 9.307e-8
1.812e+2, 9.544e-8
1.813e+2, 1.030e-7
1.814e+2, 1.039e-7
1.815e+2, 1.107e-7
1.816e+2, 1.083e-7
1.817e+2, 1.162e-7
1.818e+2, 1.121e-7
1.819e+2, 1.203e-7
1.820e+2, 1.156e-7
1.821e+2, 1.230e-7
1.822e+2, 1.181e-7
1.823e+2, 1.263e-7
1.824e+2, 1.162e-7
1.825e+2, 1.255e-7
1.826e+2, 1.161e-7
1.827e+2, 1.255e-7
1.828e+2, 1.191e-7
1.829e+2, 1.317e-7
1.830e+2, 1.237e-7
1.831e+2, 1.331e-7
1.832e+2, 1.260e-7
1.833e+2, 1.339e-7
1.834e+2, 1.260e-7
1.835e+2, 1.343e-7
1.836e+2, 1.261e-7
1.837e+2, 1.339e-7
1.838e+2, 1.270e-7
1.839e+2, 1.343e-7
1.840e+2, 1.287e-7
1.841e+2, 1.355e-7
1.842e+2, 1.306e-7
1.843e+2, 1.362e-7
1.844e+2, 1.308e-7
1.845e+2, 1.362e-7
1.846e+2, 1.338e-7
1.847e+2, 1.373e-7
1.848e+2, 1.347e-7
1.849e+2, 1.369e-7
1.850e+2, 1.362e-7
1.851e+2, 1.368e-7
1.852e+2, 1.368e-7
1.853e+2, 1.362e-7
1.854e+2, 1.375e-7
1.855e+2, 1.365e-7
1.856e+2, 1.394e-7
1.857e+2, 1.366e-7
1.858e+2, 1.400e-7
1.859e+2, 1.356e-7
1.860e+2, 1.417e-7
1.861e+2, 1.357e-7
1.862e+2, 1.406e-7
1.863e+2, 1.348e-7
1.864e+2, 1.415e-7
1.865e+2, 1.313e-7
1.866e+2, 1.426e-7
1.867e+2, 1.348e-7
1.868e+2, 1.425e-7
1.869e+2, 1.350e-7
1.870e+2, 1.416e-7
1.871e+2, 1.330e-7
1.872e+2, 1.414e-7
1.873e+2, 1.338e-7
1.874e+2, 1.415e-7
1.875e+2, 1.344e-7
1.876e+2, 1.424e-7
1.877e+2, 1.340e-7
1.878e+2, 1.419e-7
1.879e+2, 1.339e-7
1.880e+2, 1.414e-7
1.881e+2, 1.350e-7
1.882e+2, 1.411e-7
1.883e+2, 1.355e-7
1.884e+2, 1.395e-7
1.885e+2, 1.355e-7
1.886e+2, 1.402e-7
1.887e+2, 1.371e-7
1.888e+2, 1.406e-7
1.889e+2, 1.375e-7
1.890e+2, 1.380e-7
1.891e+2, 1.386e-7
1.892e+2, 1.385e-7
1.893e+2, 1.380e-7
1.894e+2, 1.376e-7
1.895e+2, 1.395e-7
1.896e+2, 1.368e-7
1.897e+2, 1.404e-7
1.898e+2, 1.376e-7
1.899e+2, 1.416e-7
1.900e+2, 1.376e-7
1.901e+2, 1.420e-7
1.902e+2, 1.373e-7
1.903e+2, 1.427e-7
1.904e+2, 1.375e-7
1.905e+2, 1.428e-7
1.906e+2, 1.367e-7
1.907e+2, 1.422e-7
1.908e+2, 1.371e-7
1.909e+2, 1.421e-7
1.910e+2, 1.372e-7
1.911e+2, 1.421e-7
1.912e+2, 1.369e-7
1.913e+2, 1.422e-7
1.914e+2, 1.383e-7
1.915e+2, 1.422e-7
1.916e+2, 1.391e-7
1.917e+2, 1.415e-7
1.918e+2, 1.394e-7
1.919e+2, 1.409e-7
1.920e+2, 1.383e-7
1.921e+2, 1.408e-7
1.922e+2, 1.412e-7
1.923e+2, 1.402e-7
1.924e+2, 1.397e-7
1.925e+2, 1.389e-7
1.926e+2, 1.419e-7
1.927e+2, 1.386e-7
1.928e+2, 1.419e-7
1.929e+2, 1.387e-7
1.930e+2, 1.450e-7
1.931e+2, 1.383e-7
1.932e+2, 1.442e-7
1.933e+2, 1.365e-7
1.934e+2, 1.438e-7
1.935e+2, 1.366e-7
1.936e+2, 1.446e-7
1.937e+2, 1.367e-7
1.938e+2, 1.452e-7
1.939e+2, 1.367e-7
1.940e+2, 1.453e-7
1.941e+2, 1.365e-7
1.942e+2, 1.446e-7
1.943e+2, 1.366e-7
1.944e+2, 1.437e-7
1.945e+2, 1.380e-7
1.946e+2, 1.445e-7
1.947e+2, 1.393e-7
1.948e+2, 1.433e-7
1.949e+2, 1.405e-7
1.950e+2, 1.435e-7
1.951e+2, 1.415e-7
1.952e+2, 1.421e-7
1.953e+2, 1.413e-7
1.954e+2, 1.408e-7
1.955e+2, 1.426e-7
1.956e+2, 1.394e-7
1.957e+2, 1.428e-7
1.958e+2, 1.390e-7
1.959e+2, 1.444e-7
1.960e+2, 1.385e-7
1.961e+2, 1.449e-7
1.962e+2, 1.375e-7
1.963e+2, 1.442e-7
1.964e+2, 1.376e-7
1.965e+2, 1.458e-7
1.966e+2, 1.368e-7
1.967e+2, 1.447e-7
1.968e+2, 1.356e-7
1.969e+2, 1.460e-7
1.970e+2, 1.372e-7
1.971e+2, 1.454e-7
1.972e+2, 1.357e-7
1.973e+2, 1.449e-7
1.974e+2, 1.382e-7
1.975e+2, 1.436e-7
1.976e+2, 1.393e-7
1.977e+2, 1.428e-7
1.978e+2, 1.407e-7
1.979e+2, 1.420e-7
1.980e+2, 1.398e-7
1.981e+2, 1.405e-7
1.982e+2, 1.432e-7
1.983e+2, 1.388e-7
1.984e+2, 1.429e-7
1.985e+2, 1.385e-7
1.986e+2, 1.435e-7
1.987e+2, 1.380e-7
1.988e+2, 1.435e-7
1.989e+2, 1.379e-7
1.990e+2, 1.451e-7
1.991e+2, 1.371e-7
1.992e+2, 1.455e-7
1.993e+2, 1.379e-7
1.994e+2, 1.452e-7
1.995e+2, 1.375e-7
1.996e+2, 1.459e-7
1.997e+2, 1.377e-7
1.998e+2, 1.444e-7
1.999e+2, 1.382e-7
2.000e+2, 1.443e-7
2.001e+2, 1.385e-7
2.002e+2, 1.429e-7
2.003e+2, 1.397e-7
2.004e+2, 1.421e-7
2.005e+2, 1.409e-7
2.006e+2, 1.406e-7
2.007e+2, 1.419e-7
2.008e+2, 1.395e-7
2.009e+2, 1.435e-7
2.010e+2, 1.388e-7
2.011e+2, 1.440e-7
2.012e+2, 1.381e-7
2.013e+2, 1.448e-7
2.014e+2, 1.382e-7
2.015e+2, 1.456e-7
2.016e+2, 1.377e-7
2.017e+2, 1.455e-7
2.018e+2, 1.364e-7
2.019e+2, 1.461e-7
2.020e+2, 1.356e-7
2.021e+2, 1.450e-7
2.022e+2, 1.381e-7
2.023e+2, 1.447e-7
2.024e+2, 1.360e-7
2.025e+2, 1.436e-7
2.026e+2, 1.384e-7
2.027e+2, 1.431e-7
2.028e+2, 1.393e-7
2.029e+2, 1.428e-7
2.030e+2, 1.401e-7
2.031e+2, 1.414e-7
2.032e+2, 1.417e-7
2.033e+2, 1.407e-7
2.034e+2, 1.426e-7
2.035e+2, 1.399e-7
2.036e+2, 1.446e-7
2.037e+2, 1.381e-7
2.038e+2, 1.449e-7
2.039e+2, 1.377e-7
2.040e+2, 1.451e-7
2.041e+2, 1.373e-7
2.042e+2, 1.461e-7
2.043e+2, 1.378e-7
2.044e+2, 1.451e-7
2.045e+2, 1.373e-7
2.046e+2, 1.461e-7
2.047e+2, 1.383e-7
2.048e+2, 1.451e-7
2.049e+2, 1.384e-7
2.050e+2, 1.455e-7
2.051e+2, 1.394e-7
2.052e+2, 1.440e-7
2.053e+2, 1.397e-7
2.054e+2, 1.435e-7
2.055e+2, 1.415e-7
2.056e+2, 1.421e-7
2.057e+2, 1.430e-7
2.058e+2, 1.411e-7
2.059e+2, 1.438e-7
2.060e+2, 1.401e-7
2.061e+2, 1.441e-7
2.062e+2, 1.384e-7
2.063e+2, 1.453e-7
2.064e+2, 1.386e-7
2.065e+2, 1.455e-7
2.066e+2, 1.383e-7
2.067e+2, 1.462e-7
2.068e+2, 1.375e-7
2.069e+2, 1.460e-7
2.070e+2, 1.380e-7
2.071e+2, 1.461e-7
2.072e+2, 1.383e-7
2.073e+2, 1.422e-7
2.074e+2, 1.387e-7
2.075e+2, 1.448e-7
2.076e+2, 1.389e-7
2.077e+2, 1.455e-7
2.078e+2, 1.425e-7
2.079e+2, 1.448e-7
2.080e+2, 1.441e-7
2.081e+2, 1.428e-7
2.082e+2, 1.434e-7
2.083e+2, 1.414e-7
2.084e+2, 1.441e-7
2.085e+2, 1.395e-7
2.086e+2, 1.451e-7
2.087e+2, 1.393e-7
2.088e+2, 1.453e-7
2.089e+2, 1.375e-7
2.090e+2, 1.459e-7
2.091e+2, 1.376e-7
2.092e+2, 1.461e-7
2.093e+2, 1.380e-7
2.094e+2, 1.469e-7
2.095e+2, 1.387e-7
2.096e+2, 1.466e-7
2.097e+2, 1.393e-7
2.098e+2, 1.459e-7
2.099e+2, 1.411e-7
2.100e+2, 1.235e-6
2.101e+2, 5.334e-6
2.102e+2, 3.649e-6
2.103e+2, 3.255e-6
2.104e+2, 3.114e-6
2.105e+2, 2.978e-6
2.106e+2, 2.895e-6
2.107e+2, 2.856e-6
2.108e+2, 2.773e-6
2.109e+2, 2.766e-6
2.110e+2, 2.703e-6
2.111e+2, 2.736e-6
2.112e+2, 2.647e-6
2.113e+2, 2.662e-6
2.114e+2, 2.670e-6
2.115e+2, 2.623e-6
2.116e+2, 2.621e-6
2.117e+2, 2.612e-6
2.118e+2, 2.590e-6
2.119e+2, 2.605e-6
2.120e+2, 2.546e-6
2.121e+2, 2.574e-6
2.122e+2, 2.520e-6
2.123e+2, 2.580e-6
2.124e+2, 2.511e-6
2.125e+2, 2.547e-6
2.126e+2, 2.534e-6
2.127e+2, 2.508e-6
2.128e+2, 2.520e-6
2.129e+2, 2.514e-6
2.130e+2, 2.523e-6
2.131e+2, 2.498e-6
2.132e+2, 2.524e-6
2.133e+2, 2.517e-6
2.134e+2, 2.502e-6
2.135e+2, 2.462e-6
2.136e+2, 2.513e-6
2.137e+2, 2.447e-6
2.138e+2, 2.508e-6
2.139e+2, 2.468e-6
2.140e+2, 2.484e-6
2.141e+2, 2.468e-6
2.142e+2, 2.480e-6
2.143e+2, 2.456e-6
2.144e+2, 2.478e-6
2.145e+2, 2.453e-6
2.146e+2, 2.457e-6
2.147e+2, 2.460e-6
2.148e+2, 2.452e-6
2.149e+2, 2.434e-6
2.150e+2, 2.461e-6
2.151e+2, 2.435e-6
2.152e+2, 2.445e-6
2.153e+2, 2.450e-6
2.154e+2, 2.443e-6
2.155e+2, 2.461e-6
2.156e+2, 2.414e-6
2.157e+2, 2.451e-6
2.158e+2, 2.407e-6
2.159e+2, 2.424e-6
2.160e+2, 2.417e-6
2.161e+2, 2.458e-6
2.162e+2, 2.392e-6
2.163e+2, 2.444e-6
2.164e+2, 2.412e-6
2.165e+2, 2.400e-6
2.166e+2, 2.388e-6
2.167e+2, 2.436e-6
2.168e+2, 2.407e-6
2.169e+2, 2.414e-6
2.170e+2, 2.398e-6
2.171e+2, 2.411e-6
2.172e+2, 2.401e-6
2.173e+2, 2.411e-6
2.174e+2, 2.420e-6
2.175e+2, 2.397e-6
2.176e+2, 2.388e-6
2.177e+2, 2.408e-6
2.178e+2, 2.420e-6
2.179e+2, 2.380e-6
2.180e+2, 2.412e-6
2.181e+2, 2.375e-6
2.182e+2, 2.392e-6
2.183e+2, 2.401e-6
2.184e+2, 2.409e-6
2.185e+2, 2.359e-6
2.186e+2, 2.393e-6
2.187e+2, 2.377e-6
2.188e+2, 2.395e-6
2.189e+2, 2.393e-6
2.190e+2, 2.385e-6
2.191e+2, 2.368e-6
2.192e+2, 2.402e-6
2.193e+2, 2.382e-6
2.194e+2, 2.378e-6
2.195e+2, 2.377e-6
2.196e+2, 2.414e-6
2.197e+2, 2.351e-6
2.198e+2, 2.382e-6
2.199e+2, 2.393e-6
2.200e+2, 2.372e-6
2.201e+2, 2.375e-6
2.202e+2, 2.372e-6
2.203e+2, 2.359e-6
2.204e+2, 2.369e-6
2.205e+2, 2.367e-6
2.206e+2, 2.357e-6
2.207e+2, 2.372e-6
2.208e+2, 2.376e-6
2.209e+2, 2.367e-6
2.210e+2, 2.371e-6
2.211e+2, 2.352e-6
2.212e+2, 2.360e-6
2.213e+2, 2.356e-6
2.214e+2, 2.352e-6
2.215e+2, 2.361e-6
2.216e+2, 2.343e-6
2.217e+2, 2.373e-6
2.218e+2, 2.334e-6
2.219e+2, 2.360e-6
2.220e+2, 2.341e-6
2.221e+2, 2.351e-6
2.222e+2, 2.363e-6
2.223e+2, 2.364e-6
2.224e+2, 2.333e-6
2.225e+2, 2.360e-6
2.226e+2, 2.343e-6
2.227e+2, 2.350e-6
2.228e+2, 2.362e-6
2.229e+2, 2.344e-6
2.230e+2, 2.358e-6
2.231e+2, 2.355e-6
2.232e+2, 2.340e-6
2.233e+2, 2.346e-6
2.234e+2, 2.350e-6
2.235e+2, 2.327e-6
2.236e+2, 2.331e-6
2.237e+2, 2.336e-6
2.238e+2, 2.346e-6
2.239e+2, 2.332e-6
2.240e+2, 2.373e-6
2.241e+2, 2.315e-6
2.242e+2, 2.344e-6
2.243e+2, 2.348e-6
2.244e+2, 2.331e-6
2.245e+2, 2.338e-6
2.246e+2, 2.330e-6
2.247e+2, 2.325e-6
2.248e+2, 2.338e-6
2.249e+2, 2.340e-6
2.250e+2, 2.343e-6
2.251e+2, 2.343e-6
2.252e+2, 2.324e-6
2.253e+2, 2.365e-6
2.254e+2, 2.339e-6
2.255e+2, 2.330e-6
2.256e+2, 2.343e-6
2.257e+2, 2.328e-6
2.258e+2, 2.322e-6
2.259e+2, 2.341e-6
2.260e+2, 2.304e-6
2.261e+2, 2.353e-6
2.262e+2, 2.309e-6
2.263e+2, 2.314e-6
2.264e+2, 2.329e-6
2.265e+2, 2.317e-6
2.266e+2, 2.310e-6
2.267e+2, 2.355e-6
2.268e+2, 2.302e-6
2.269e+2, 2.338e-6
2.270e+2, 2.310e-6
2.271e+2, 2.344e-6
2.272e+2, 2.305e-6
2.273e+2, 2.324e-6
2.274e+2, 2.314e-6
2.275e+2, 2.297e-6
2.276e+2, 2.346e-6
2.277e+2, 2.301e-6
2.278e+2, 2.307e-6
2.279e+2, 2.307e-6
2.280e+2, 2.318e-6
2.281e+2, 2.306e-6
2.282e+2, 2.303e-6
2.283e+2, 2.341e-6
2.284e+2, 2.320e-6
2.285e+2, 2.314e-6
2.286e+2, 2.308e-6
2.287e+2, 2.304e-6
2.288e+2, 2.307e-6
2.289e+2, 2.312e-6
2.290e+2, 2.309e-6
2.291e+2, 2.297e-6
2.292e+2, 2.310e-6
2.293e+2, 2.303e-6
2.294e+2, 2.317e-6
2.295e+2, 2.302e-6
2.296e+2, 2.293e-6
2.297e+2, 2.301e-6
2.298e+2, 2.323e-6
2.299e+2, 2.282e-6
2.300e+2, 2.321e-6
2.301e+2, 2.296e-6
2.302e+2, 2.302e-6
2.303e+2, 2.331e-6
2.304e+2, 2.305e-6
2.305e+2, 2.285e-6
2.306e+2, 2.331e-6
2.307e+2, 2.260e-6
2.308e+2, 2.314e-6
2.309e+2, 2.298e-6
2.310e+2, 2.291e-6
2.311e+2, 2.316e-6
2.312e+2, 2.264e-6
2.313e+2, 2.307e-6
2.314e+2, 2.272e-6
2.315e+2, 2.303e-6
2.316e+2, 2.286e-6
2.317e+2, 2.277e-6
2.318e+2, 2.294e-6
2.319e+2, 2.335e-6
2.320e+2, 2.267e-6
2.321e+2, 2.303e-6
2.322e+2, 2.291e-6
2.323e+2, 2.325e-6
2.324e+2, 2.271e-6
2.325e+2, 2.282e-6
2.326e+2, 2.288e-6
2.327e+2, 2.305e-6
2.328e+2, 2.260e-6
2.329e+2, 2.293e-6
2.330e+2, 2.291e-6
2.331e+2, 2.278e-6
2.332e+2, 2.284e-6
2.333e+2, 2.279e-6
2.334e+2, 2.278e-6
2.335e+2, 2.281e-6
2.336e+2, 2.321e-6
2.337e+2, 2.250e-6
2.338e+2, 2.292e-6
2.339e+2, 2.273e-6
2.340e+2, 2.293e-6
2.341e+2, 2.261e-6
2.342e+2, 2.308e-6
2.343e+2, 2.258e-6
2.344e+2, 2.288e-6
2.345e+2, 2.297e-6
2.346e+2, 2.267e-6
2.347e+2, 2.267e-6
2.348e+2, 2.319e-6
2.349e+2, 2.242e-6
2.350e+2, 2.308e-6
2.351e+2, 2.266e-6
2.352e+2, 2.265e-6
2.353e+2, 2.272e-6
2.354e+2, 2.285e-6
2.355e+2, 2.242e-6
2.356e+2, 2.311e-6
2.357e+2, 2.263e-6
2.358e+2, 2.280e-6
2.359e+2, 2.271e-6
2.360e+2, 2.272e-6
2.361e+2, 2.285e-6
2.362e+2, 2.289e-6
2.363e+2, 2.252e-6
2.364e+2, 2.285e-6
2.365e+2, 2.290e-6
2.366e+2, 2.259e-6
2.367e+2, 2.274e-6
2.368e+2, 2.275e-6
2.369e+2, 2.272e-6
2.370e+2, 2.281e-6
2.371e+2, 2.285e-6
2.372e+2, 2.259e-6
2.373e+2, 2.281e-6
2.374e+2, 2.237e-6
2.375e+2, 2.285e-6
2.376e+2, 2.217e-6
2.377e+2, 2.267e-6
2.378e+2, 2.267e-6
2.379e+2, 2.257e-6
2.380e+2, 2.272e-6
2.381e+2, 2.281e-6
2.382e+2, 2.264e-6
2.383e+2, 2.268e-6
2.384e+2, 2.270e-6
2.385e+2, 2.270e-6
2.386e+2, 2.254e-6
2.387e+2, 2.274e-6
2.388e+2, 2.274e-6
2.389e+2, 2.237e-6
2.390e+2, 2.293e-6
2.391e+2, 2.256e-6
2.392e+2, 2.261e-6
2.393e+2, 2.239e-6
2.394e+2, 2.257e-6
2.395e+2, 2.243e-6
2.396e+2, 2.259e-6
2.397e+2, 2.257e-6
2.398e+2, 2.287e-6
2.399e+2, 2.236e-6
2.400e+2, 2.280e-6
2.401e+2, 2.238e-6
2.402e+2, 1.333e-6
2.403e+2, -3.394e-7
2.404e+2, -7.678e-8
2.405e+2, -1.325e-8
2.406e+2, 3.077e-8
2.407e+2, 4.649e-8
2.408e+2, 7.158e-8
2.409e+2, 7.594e-8
2.410e+2, 9.402e-8
2.411e+2, 9.232e-8
2.412e+2, 1.066e-7
2.413e+2, 1.040e-7
2.414e+2, 1.165e-7
2.415e+2, 1.113e-7
2.416e+2, 1.217e-7
2.417e+2, 1.184e-7
2.418e+2, 1.267e-7
2.419e+2, 1.227e-7
2.420e+2, 1.293e-7
2.421e+2, 1.242e-7
2.422e+2, 1.322e-7
2.423e+2, 1.292e-7
2.424e+2, 1.344e-7
2.425e+2, 1.316e-7
2.426e+2, 1.331e-7
2.427e+2, 1.303e-7
2.428e+2, 1.324e-7
2.429e+2, 1.344e-7
2.430e+2, 1.379e-7
2.431e+2, 1.377e-7
2.432e+2, 1.390e-7
2.433e+2, 1.402e-7
2.434e+2, 1.390e-7
2.435e+2, 1.414e-7
2.436e+2, 1.392e-7
2.437e+2, 1.430e-7
2.438e+2, 1.398e-7
2.439e+2, 1.439e-7
2.440e+2, 1.396e-7
2.441e+2, 1.452e-7
2.442e+2, 1.397e-7
2.443e+2, 1.455e-7
2.444e+2, 1.409e-7
2.445e+2, 1.459e-7
2.446e+2, 1.411e-7
2.447e+2, 1.469e-7
2.448e+2, 1.411e-7
2.449e+2, 1.475e-7
2.450e+2, 1.419e-7
2.451e+2, 1.476e-7
2.452e+2, 1.409e-7
2.453e+2, 1.482e-7
2.454e+2, 1.417e-7
2.455e+2, 1.496e-7
2.456e+2, 1.415e-7
2.457e+2, 1.492e-7
2.458e+2, 1.419e-7
2.459e+2, 1.508e-7
2.460e+2, 1.422e-7
2.461e+2, 1.506e-7
2.462e+2, 1.424e-7
2.463e+2, 1.508e-7
2.464e+2, 1.429e-7
2.465e+2, 1.507e-7
2.466e+2, 1.434e-7
2.467e+2, 1.490e-7
2.468e+2, 1.442e-7
2.469e+2, 1.513e-7
2.470e+2, 1.438e-7
2.471e+2, 1.510e-7
2.472e+2, 1.443e-7
2.473e+2, 1.511e-7
2.474e+2, 1.443e-7
2.475e+2, 1.499e-7
2.476e+2, 1.425e-7
2.477e+2, 1.507e-7
2.478e+2, 1.444e-7
2.479e+2, 1.515e-7
2.480e+2, 1.440e-7
2.481e+2, 1.512e-7
2.482e+2, 1.445e-7
2.483e+2, 1.498e-7
2.484e+2, 1.443e-7
2.485e+2, 1.503e-7
2.486e+2, 1.442e-7
2.487e+2, 1.494e-7
2.488e+2, 1.455e-7
2.489e+2, 1.515e-7
2.490e+2, 1.452e-7
2.491e+2, 1.501e-7
2.492e+2, 1.454e-7
2.493e+2, 1.506e-7
2.494e+2, 1.452e-7
2.495e+2, 1.507e-7
2.496e+2, 1.453e-7
2.497e+2, 1.508e-7
2.498e+2, 1.457e-7
2.499e+2, 1.504e-7
2.500e+2, 1.455e-7
2.501e+2, 1.509e-7
2.502e+2, 1.453e-7
2.503e+2, 1.516e-7
2.504e+2, 1.463e-7
2.505e+2, 1.504e-7
2.506e+2, 1.456e-7
2.507e+2, 1.510e-7
2.508e+2, 1.455e-7
2.509e+2, 1.516e-7
2.510e+2, 1.461e-7
2.511e+2, 1.530e-7
2.512e+2, 1.451e-7
2.513e+2, 1.511e-7
2.514e+2, 1.456e-7
2.515e+2, 1.518e-7
2.516e+2, 1.456e-7
2.517e+2, 1.520e-7
2.518e+2, 1.458e-7
2.519e+2, 1.508e-7
2.520e+2, 1.463e-7
2.521e+2, 1.504e-7
2.522e+2, 1.456e-7
2.523e+2, 1.521e-7
2.524e+2, 1.456e-7
2.525e+2, 1.496e-7
2.526e+2, 1.446e-7
2.527e+2, 1.528e-7
2.528e+2, 1.465e-7
2.529e+2, 1.541e-7
2.530e+2, 1.465e-7
2.531e+2, 1.527e-7
2.532e+2, 1.457e-7
2.533e+2, 1.532e-7
2.534e+2, 1.447e-7
2.535e+2, 1.535e-7
2.536e+2, 1.456e-7
2.537e+2, 1.527e-7
2.538e+2, 1.451e-7
2.539e+2, 1.532e-7
2.540e+2, 1.448e-7
2.541e+2, 1.533e-7
2.542e+2, 1.451e-7
2.543e+2, 1.527e-7
2.544e+2, 1.458e-7
2.545e+2, 1.524e-7
2.546e+2, 1.452e-7
2.547e+2, 1.530e-7
2.548e+2, 1.445e-7
2.549e+2, 1.539e-7
2.550e+2, 1.447e-7
2.551e+2, 1.534e-7
2.552e+2, 1.441e-7
2.553e+2, 1.529e-7
2.554e+2, 1.451e-7
2.555e+2, 1.529e-7
2.556e+2, 1.451e-7
2.557e+2, 1.534e-7
2.558e+2, 1.448e-7
2.559e+2, 1.534e-7
2.560e+2, 1.452e-7
2.561e+2, 1.529e-7
2.562e+2, 1.457e-7
2.563e+2, 1.531e-7
2.564e+2, 1.456e-7
2.565e+2, 1.531e-7
2.566e+2, 1.455e-7
2.567e+2, 1.529e-7
2.568e+2, 1.466e-7
2.569e+2, 1.544e-7
2.570e+2, 1.459e-7
2.571e+2, 1.536e-7
2.572e+2, 1.451e-7
2.573e+2, 1.528e-7
2.574e+2, 1.466e-7
2.575e+2, 1.526e-7
2.576e+2, 1.442e-7
2.577e+2, 1.518e-7
2.578e+2, 1.461e-7
2.579e+2, 1.531e-7
2.580e+2, 1.463e-7
2.581e+2, 1.530e-7
2.582e+2, 1.459e-7
2.583e+2, 1.528e-7
2.584e+2, 1.464e-7
2.585e+2, 1.521e-7
2.586e+2, 1.463e-7
2.587e+2, 1.518e-7
2.588e+2, 1.460e-7
2.589e+2, 1.526e-7
2.590e+2, 1.472e-7
2.591e+2, 1.526e-7
2.592e+2, 1.446e-7
2.593e+2, 1.525e-7
2.594e+2, 1.464e-7
2.595e+2, 1.521e-7
2.596e+2, 1.458e-7
2.597e+2, 1.520e-7
2.598e+2, 1.464e-7
2.599e+2, 1.525e-7
2.600e+2, 1.466e-7
2.601e+2, 1.515e-7
2.602e+2, 1.470e-7
2.603e+2, 1.522e-7
2.604e+2, 1.469e-7
2.605e+2, 1.513e-7
2.606e+2, 1.472e-7
2.607e+2, 1.518e-7
2.608e+2, 1.470e-7
2.609e+2, 1.517e-7
2.610e+2, 1.474e-7
2.611e+2, 1.529e-7
2.612e+2, 1.468e-7
2.613e+2, 1.522e-7
2.614e+2, 1.475e-7
2.615e+2, 1.509e-7
2.616e+2, 1.479e-7
2.617e+2, 1.514e-7
2.618e+2, 1.478e-7
2.619e+2, 1.510e-7
2.620e+2, 1.479e-7
2.621e+2, 1.480e-7
2.622e+2, 1.483e-7
2.623e+2, 1.501e-7
2.624e+2, 1.483e-7
2.625e+2, 1.474e-7
2.626e+2, 1.484e-7
2.627e+2, 1.499e-7
2.628e+2, 1.490e-7
2.629e+2, 1.498e-7
2.630e+2, 1.497e-7
2.631e+2, 1.491e-7
2.632e+2, 1.488e-7
2.633e+2, 1.495e-7
2.634e+2, 1.501e-7
2.635e+2, 1.492e-7
2.636e+2, 1.506e-7
2.637e+2, 1.485e-7
2.638e+2, 1.508e-7
2.639e+2, 1.475e-7
2.640e+2, 1.510e-7
2.641e+2, 1.441e-7
2.642e+2, 1.457e-7
2.643e+2, 1.422e-7
2.644e+2, 1.482e-7
2.645e+2, 1.464e-7
2.646e+2, 1.522e-7
2.647e+2, 1.469e-7
2.648e+2, 1.522e-7
2.649e+2, 1.462e-7
2.650e+2, 1.522e-7
2.651e+2, 1.464e-7
2.652e+2, 1.519e-7
2.653e+2, 1.459e-7
2.654e+2, 1.526e-7
2.655e+2, 1.456e-7
2.656e+2, 1.535e-7
2.657e+2, 1.454e-7
2.658e+2, 1.534e-7
2.659e+2, 1.461e-7
2.660e+2, 1.532e-7
2.661e+2, 1.453e-7
2.662e+2, 1.532e-7
2.663e+2, 1.462e-7
2.664e+2, 1.530e-7
2.665e+2, 1.449e-7
2.666e+2, 1.534e-7
2.667e+2, 1.462e-7
2.668e+2, 1.540e-7
2.669e+2, 1.460e-7
2.670e+2, 1.538e-7
2.671e+2, 1.459e-7
2.672e+2, 1.536e-7
2.673e+2, 1.449e-7
2.674e+2, 1.533e-7
2.675e+2, 1.452e-7
2.676e+2, 1.544e-7
2.677e+2, 1.440e-7
2.678e+2, 1.536e-7
2.679e+2, 1.449e-7
2.680e+2, 1.525e-7
2.681e+2, 1.450e-7
2.682e+2, 1.528e-7
2.683e+2, 1.445e-7
2.684e+2, 1.527e-7
2.685e+2, 1.450e-7
2.686e+2, 1.529e-7
2.687e+2, 1.449e-7
2.688e+2, 1.539e-7
2.689e+2, 1.441e-7
2.690e+2, 1.532e-7
2.691e+2, 1.449e-7
2.692e+2, 1.534e-7
2.693e+2, 1.445e-7
2.694e+2, 1.536e-7
2.695e+2, 1.454e-7
2.696e+2, 1.532e-7
2.697e+2, 1.461e-7
2.698e+2, 1.541e-7
2.699e+2, 1.447e-7
2.700e+2, 1.550e-7
2.701e+2, 1.449e-7
2.702e+2, 1.535e-7
2.703e+2, 1.451e-7
2.704e+2, 1.536e-7
2.705e+2, 1.450e-7
2.706e+2, 1.536e-7
2.707e+2, 1.464e-7
2.708e+2, 1.541e-7
2.709e+2, 1.456e-7
2.710e+2, 1.534e-7
2.711e+2, 1.462e-7
2.712e+2, 1.534e-7
2.713e+2, 1.450e-7
2.714e+2, 1.520e-7
2.715e+2, 1.451e-7
2.716e+2, 1.528e-7
2.717e+2, 1.460e-7
2.718e+2, 1.524e-7
2.719e+2, 1.463e-7
2.720e+2, 1.515e-7
2.721e+2, 1.447e-7
2.722e+2, 1.514e-7
2.723e+2, 1.473e-7
2.724e+2, 1.515e-7
2.725e+2, 1.443e-7
2.726e+2, 1.503e-7
